Time (Hour),Total Power (kW),Critical Power (kW),Remaining Power (kW)
0,0.65425,0.25,0.40425
1,0.57295,0.25,0.32295
2,0.52765,0.25,0.27765
3,0.49545,0.25,0.24545
4,0.49135,0.25,0.24135
5,0.48565,0.25,0.23565
6,0.52455,0.25,0.27455
7,0.5551,0.25,0.3051
8,0.6851,0.25,0.4351
9,0.73305,0.25,0.48305
10,0.8167,0.25,0.5667
11,0.8898,0.25,0.6398
12,0.98625,0.25,0.73625
13,1.10095,0.25,0.85095
14,1.18485,0.25,0.93485
15,1.28035,0.25,1.03035
16,1.39265,0.25,1.14265
17,1.4726,0.25,1.2226
18,1.4314,0.25,1.1814
19,1.4067,0.25,1.1567
20,1.35205,0.25,1.10205
21,1.2223,0.25,0.9723
22,1.06295,0.25,0.81295
23,0.8609,0.25,0.6109
24,0.7194,0.25,0.4694
25,0.61855,0.25,0.36855
26,0.552,0.25,0.302
27,0.51175,0.25,0.26175
28,0.5077,0.25,0.2577
29,0.5172,0.25,0.2672
30,0.54375,0.25,0.29375
31,0.6024,0.25,0.3524
32,0.72105,0.25,0.47105
33,0.84695,0.25,0.59695
34,0.9193,0.25,0.6693
35,1.0334,0.25,0.7834
36,1.1452,0.25,0.8952
37,1.27725,0.25,1.02725
38,1.40805,0.25,1.15805
39,1.5109,0.25,1.2609
40,1.52675,0.25,1.27675
41,1.5743,0.25,1.3243
42,1.5305,0.25,1.2805
43,1.49475,0.25,1.24475
44,1.4807,0.25,1.2307
45,1.33245,0.25,1.08245
46,1.0576,0.25,0.8076
47,0.815,0.25,0.565
48,0.69745,0.25,0.44745
49,0.59365,0.25,0.34365
50,0.548,0.25,0.298
51,0.5221,0.25,0.2721
52,0.52245,0.25,0.27245
53,0.56495,0.25,0.31495
54,0.67475,0.25,0.42475
55,0.69995,0.25,0.44995
56,0.6742,0.25,0.4242
57,0.6943,0.25,0.4443
58,0.71895,0.25,0.46895
59,0.7554,0.25,0.5054
60,0.81575,0.25,0.56575
61,0.89955,0.25,0.64955
62,0.9906,0.25,0.7406
63,1.10925,0.25,0.85925
64,1.2562,0.25,1.0062
65,1.3248,0.25,1.0748
66,1.33375,0.25,1.08375
67,1.27415,0.25,1.02415
68,1.2954,0.25,1.0454
69,1.1779,0.25,0.9279
70,0.96995,0.25,0.71995
71,0.7281,0.25,0.4781
72,0.614,0.25,0.364
73,0.5504,0.25,0.3004
74,0.51875,0.25,0.26875
75,0.49795,0.25,0.24795
76,0.50135,0.25,0.25135
77,0.5448,0.25,0.2948
78,0.6565,0.25,0.4065
79,0.6966,0.25,0.4466
80,0.659,0.25,0.409
81,0.6748,0.25,0.4248
82,0.67315,0.25,0.42315
83,0.6727,0.25,0.4227
84,0.7003,0.25,0.4503
85,0.7222,0.25,0.4722
86,0.7926,0.25,0.5426
87,0.8799,0.25,0.6299
88,0.96845,0.25,0.71845
89,1.04525,0.25,0.79525
90,1.0234,0.25,0.7734
91,1.04925,0.25,0.79925
92,1.1236,0.25,0.8736
93,1.03735,0.25,0.78735
94,0.82075,0.25,0.57075
95,0.6749,0.25,0.4249
96,0.55865,0.25,0.30865
97,0.4917,0.25,0.2417
98,0.45395,0.25,0.20395
99,0.4453,0.25,0.1953
100,0.4773,0.25,0.2273
101,0.51205,0.25,0.26205
102,0.6297,0.25,0.3797
103,0.6661,0.25,0.4161
104,0.60775,0.25,0.35775
105,0.59715,0.25,0.34715
106,0.59725,0.25,0.34725
107,0.6055,0.25,0.3555
108,0.601,0.25,0.351
109,0.5843,0.25,0.3343
110,0.60535,0.25,0.35535
111,0.6278,0.25,0.3778
112,0.66615,0.25,0.41615
113,0.75655,0.25,0.50655
114,0.8036,0.25,0.5536
115,0.84785,0.25,0.59785
116,0.9374,0.25,0.6874
117,0.87245,0.25,0.62245
118,0.7213,0.25,0.4713
119,0.5835,0.25,0.3335
120,0.49825,0.25,0.24825
121,0.4528,0.25,0.2028
122,0.4306,0.25,0.1806
123,0.4322,0.25,0.1822
124,0.4383,0.25,0.1883
125,0.48815,0.25,0.23815
126,0.6119,0.25,0.3619
127,0.6547,0.25,0.4047
128,0.63645,0.25,0.38645
129,0.66335,0.25,0.41335
130,0.63885,0.25,0.38885
131,0.61385,0.25,0.36385
132,0.61665,0.25,0.36665
133,0.6052,0.25,0.3552
134,0.5732,0.25,0.3232
135,0.61045,0.25,0.36045
136,0.67655,0.25,0.42655
137,0.72675,0.25,0.47675
138,0.77005,0.25,0.52005
139,0.8602,0.25,0.6102
140,0.90905,0.25,0.65905
141,0.8303,0.25,0.5803
142,0.7164,0.25,0.4664
143,0.61055,0.25,0.36055
144,0.52205,0.25,0.27205
145,0.48125,0.25,0.23125
146,0.4559,0.25,0.2059
147,0.43515,0.25,0.18515
148,0.4447,0.25,0.1947
149,0.4522,0.25,0.2022
150,0.49165,0.25,0.24165
151,0.56435,0.25,0.31435
152,0.64655,0.25,0.39655
153,0.71135,0.25,0.46135
154,0.71425,0.25,0.46425
155,0.7076,0.25,0.4576
156,0.69235,0.25,0.44235
157,0.68885,0.25,0.43885
158,0.6812,0.25,0.4312
159,0.6859,0.25,0.4359
160,0.71245,0.25,0.46245
161,0.75005,0.25,0.50005
162,0.75925,0.25,0.50925
163,0.8367,0.25,0.5867
164,0.90025,0.25,0.65025
165,0.8042,0.25,0.5542
166,0.7134,0.25,0.4634
167,0.6179,0.25,0.3679
168,0.5233,0.25,0.2733
169,0.4664,0.25,0.2164
170,0.4384,0.25,0.1884
171,0.4257,0.25,0.1757
172,0.41445,0.25,0.16445
173,0.42755,0.25,0.17755
174,0.46655,0.25,0.21655
175,0.53705,0.25,0.28705
176,0.64215,0.25,0.39215
177,0.688,0.25,0.438
178,0.718,0.25,0.468
179,0.76145,0.25,0.51145
180,0.7658,0.25,0.5158
181,0.7526,0.25,0.5026
182,0.75395,0.25,0.50395
183,0.77085,0.25,0.52085
184,0.80265,0.25,0.55265
185,0.8564,0.25,0.6064
186,0.8905,0.25,0.6405
187,0.9623,0.25,0.7123
188,1.04,0.25,0.79
189,0.93955,0.25,0.68955
190,0.77455,0.25,0.52455
191,0.6072,0.25,0.3572
192,0.5084,0.25,0.2584
193,0.45605,0.25,0.20605
194,0.428,0.25,0.178
195,0.4236,0.25,0.1736
196,0.4319,0.25,0.1819
197,0.4767,0.25,0.2267
198,0.5942,0.25,0.3442
199,0.62215,0.25,0.37215
200,0.636,0.25,0.386
201,0.63055,0.25,0.38055
202,0.59145,0.25,0.34145
203,0.62015,0.25,0.37015
204,0.6163,0.25,0.3663
205,0.6105,0.25,0.3605
206,0.6856,0.25,0.4356
207,0.7529,0.25,0.5029
208,0.86145,0.25,0.61145
209,0.9537,0.25,0.7037
210,1.0091,0.25,0.7591
211,1.1059,0.25,0.8559
212,1.1302,0.25,0.8802
213,0.98635,0.25,0.73635
214,0.80425,0.25,0.55425
215,0.6226,0.25,0.3726
216,0.5212,0.25,0.2712
217,0.47755,0.25,0.22755
218,0.4566,0.25,0.2066
219,0.4359,0.25,0.1859
220,0.4437,0.25,0.1937
221,0.5056,0.25,0.2556
222,0.63585,0.25,0.38585
223,0.65995,0.25,0.40995
224,0.6056,0.25,0.3556
225,0.6015,0.25,0.3515
226,0.58925,0.25,0.33925
227,0.6058,0.25,0.3558
228,0.6463,0.25,0.3963
229,0.6729,0.25,0.4229
230,0.7899,0.25,0.5399
231,0.8814,0.25,0.6314
232,1.0183,0.25,0.7683
233,1.1183,0.25,0.8683
234,1.14285,0.25,0.89285
235,1.1461,0.25,0.8961
236,1.18555,0.25,0.93555
237,1.05945,0.25,0.80945
238,0.87625,0.25,0.62625
239,0.70145,0.25,0.45145